Synthetic,Scope Studio V/I/di-dt demo
Internal Inductance H,0.000166
Load Resistance Ohm,0.012
Original Data,Synthetic demonstration only
TIME,CH1 BBCM Voltage (V),CH2 Pearson Current (A),CH3 Control (V),CH4 dI/dt (A/s),CH5 L*dI/dt (V),CH6 Drive Voltage (V)
0.0,2.52,0.020424308384122625,7.472557582487997e-05,7.202465139747467,0.0011956092131980795,0.0011956092131980795
5e-05,2.5199998799589145,-0.5743991108363408,8.350710924047575e-05,8.022844992552793,0.0013317922687637637,0.001336113747847612
0.0001,2.519999746244831,-0.7372758891739131,9.33206037880758e-05,8.939725750179715,0.0014839944745298327,0.0014931296606092129
0.00015000000000000001,2.519999597249402,1.9134374657348014,0.00010428732549689257,9.964446906149357,0.0016540981864207932,0.001668597207950281
0.0002,2.519999431175287,0.15496641142383125,0.00011654278920702378,11.109680347224115,0.0018442069376392032,0.0018646846273123806
0.00025,2.5199992460139478,-0.9574623836812858,0.00013023843251409688,12.389586881590592,0.002056671422344038,0.00208381492022555
0.00030000000000000003,2.519999039520833,1.520435708314245,0.0001455434862944079,13.819991148795545,0.0022941185307000602,0.0023286957807105266
0.00035,2.5199988091876473,-0.9844804648816131,0.00016264706487770082,15.418577068334153,0.0025594837933434695,0.002602353038043213
0.0004,2.5199985522113626,0.07035838566924457,0.00018176050163689613,17.205106236443335,0.0028560476352495934,0.002908168026190338
0.00045000000000000004,2.5199982654595923,-0.5367659321831082,0.00020311995878165596,19.20166196279449,0.003187475885823885,0.0032499193405064954
0.0005,2.519997945431893,-2.191515409018242,0.0002269893435121716,21.432921953822042,0.0035578650443344587,0.0036318294961947455
0.00055,2.519997588216527,-1.1294804996842926,0.0002536635664516869,23.926463001171143,0.00397179285819441,0.00405861706322699
0.0006000000000000001,2.5199971894421433,-0.12862142677938854,0.00028347218247632257,26.713101426433003,0.004434374836787878,0.004535554919621161
0.0006500000000000001,2.5199967442237865,-0.7155211082810584,0.00031678345874917917,29.82727347167304,0.004951327396297724,0.005068535339986867
0.0007,2.519996247102562,1.9049182362221515,0.00035400891999852203,33.307460314483166,0.005529038412204206,0.0056641427199763525
0.00075,2.5199956919782234,-0.3489999265206477,0.0003956084269195188,37.196662932237736,0.006174646046751464,0.006329734830712301
0.0008,2.5199950720338413,-0.9833500324644159,0.000442095850094693,41.542932649366925,0.00689612681979491,0.007073533601515088
0.0008500000000000001,2.51999437965163,-0.49264087055066624,0.000494045409096991,46.399963880976244,0.007702394004242057,0.007904726545551856
0.0009000000000000001,2.519993606318899,-0.18054322446610213,0.0005520987545464234,51.827756344002346,0.008603407553104389,0.008833580072742774
0.00095,2.51999274252296,0.12893557533996589,0.0006169728799311587,57.89335485213104,0.009610296905453753,0.009871566078898539
0.001,2.519991777633712,-2.6214076171770073,0.0006894689600815743,64.67167575270557,0.010735498174949124,0.011031503361305189
0.0010500000000000002,2.5199906997724497,0.2570019177127457,0.000770482224416745,72.24643011361586,0.011992907398860232,0.01232771559066792
0.0011,2.519989495665281,0.6748328672985696,0.00086101298559513,80.71115493762785,0.013398051719646224,0.01377620776952208
0.00115,2.5199881504793655,-1.4727559334012357,0.0009621789581358573,90.17036498394748,0.014968280587335282,0.015394863330173716
0.0012000000000000001,2.519986647639949,-0.4231200404452095,0.001075229017089155,100.74083922649203,0.016722979311597677,0.01720366427342648
0.00125,2.519984968625962,-0.780247662564361,0.0012015585640946314,112.55305759126146,0.018683807560149403,0.019224937025514102
0.0013000000000000002,2.519983092741669,0.3406338875519852,0.0013427266873612404,125.75280540879756,0.020874965697860393,0.021483626997779847
0.00135,2.519980996861579,-0.7674752121796357,0.0015004753234369944,140.5029650110071,0.023323492191827177,0.02400760517499191
0.0014,2.5199786551454952,-1.3092861697950582,0.0016767506523323907,156.98551611534285,0.026059595675146912,0.02682801043731825
0.0014500000000000001,2.519976038720227,-0.40781265988228654,0.001873726983860725,175.40376909597023,0.02911702566993106,0.0299796317417716
0.0015,2.519973115324075,0.037269247055899256,0.0020938334222218658,195.98485796537184,0.03253348642225173,0.03350133475554985
0.0015500000000000002,2.5199698489097755,2.5685206808226373,0.0023397836281646763,218.98252290697272,0.03635109880255747,0.03743653805063482
0.0016,2.5199661992010607,0.6211879874320857,0.0026146090338168186,244.68021553763595,0.040616915779247566,0.0418337445410691
0.00165,2.519962121197468,0.1315715956390387,0.002921695904787552,273.3945637678116,0.04538349758545672,0.04674713447660083
0.0017000000000000001,2.5199575646214054,-0.945759092179172,0.003264826687763459,305.47923719765384,0.050709553374810534,0.05223722700421534
0.00175,2.5199524733007856,0.9045645457467413,0.0036482261298763615,341.32925847167706,0.056660656906298394,0.058371618078021784
0.0018000000000000002,2.519946784479811,-0.03087081107541409,0.004076612708981911,381.3858109452059,0.06331004461690418,0.06522580334371057
0.00185,2.5199404280496287,-0.9570617374469157,0.004555255972003227,426.14159842577175,0.07073950533867811,0.07288409555205164
0.0019,2.519933325689655,0.3298347404000287,0.005090040442014267,476.1468186734897,0.07904037189979929,0.08144064707222827
0.0019500000000000001,2.5199253899093437,0.16455805650549718,0.0056875368240884155,532.0158188059131,0.08831462592178158,0.09100058918541465
0.002,2.51991652297903,-0.049466788023057706,0.0063550813154067895,594.4345077806747,0.098676128291592,0.10168130104650863
0.00205,2.519906615737234,-0.10058520725973269,0.007100863906933696,664.168608743097,0.11025198905135411,0.11361382251093914
0.0021000000000000003,2.5198955462604213,-1.705326960765551,0.007934026652256558,742.0728422365906,0.12318409181127404,0.12694442643610493
0.00215,2.5198831783797173,-0.7901633421850944,0.008864772973960705,829.1011400795087,0.13763078925319844,0.1418363675833713
0.0022,2.519869360027383,0.6624202851721434,0.009904489178989633,926.3179990940577,0.15376878784961356,0.15847182686383413
0.0022500000000000003,2.5198539213940645,-0.6290736801493306,0.011065879461414891,1034.9110937889234,0.17179524156896128,0.17705407138263826
0.0023,2.519836672875835,1.5379201395016942,0.01236311578317386,1156.2052774748881,0.19193007606083143,0.19780985253078176
0.00235,2.519817402787877,0.1263160868671877,0.0138120041394771,1291.678112019267,0.2144185665951983,0.2209920662316336
0.0024000000000000002,2.519795874819343,1.8348737339726182,0.015430168834053728,1442.9770773567038,0.23953419484121283,0.24688270134485965
0.00245,2.519771825201387,-0.6724965373711541,0.01723725650781782,1611.9386227411098,0.26758181137502424,0.2757961041250851
0.0025,2.519744959557675,-0.2655790576331116,0.01925516177965126,1800.6092322332208,0.29890113255071465,0.30808258847442016
0.00255,2.5197149494038045,0.7555046211114455,0.0215082764654645,2011.2686866529311,0.33387060198438656,0.344132423447432
0.0026000000000000003,2.5196814282590267,1.4820292276301688,0.024023764435797592,2246.455712636893,0.3729116482977243,0.38438023097276147
0.00265,2.519643987330483,0.7222799170745897,0.026831864245543922,2508.9962158197795,0.41649337182608337,0.42930982792870276
0.0027,2.519602170726886,1.0501347901710645,0.02996622171241144,2802.034298593204,0.46513769356647183,0.47945954739858304
0.0027500000000000003,2.5195554701552427,-0.8676124528225295,0.03346425462142428,3129.0662622380805,0.5194249995315213,0.5354280739427885
0.0028,2.5195033190508718,1.0055914418970286,0.037367551675968225,3493.977787029407,0.5800003126468816,0.5978808268154916
0.00285,2.519445086087755,0.8131288043197765,0.04172230768275026,3901.084470380582,0.6475800220831766,0.6675569229240041
0.0029000000000000002,2.5193800680132483,-1.1114983920677517,0.04657979672533347,4355.175880013731,0.7229591960822794,0.7452767476053355
0.00295,2.5193074817485814,2.5923864601031164,0.05199688472023031,4861.563243810969,0.8070194984726208,0.831950155523685
0.003,2.519226455694518,2.3040288012738106,0.05803658222652316,5426.130847150722,0.9007377206270198,0.9285853156243705
0.00305,2.5191360201803987,1.689744553686086,0.06476863765347936,6055.391138253184,1.0051949289500286,1.0362982024556697
0.0031000000000000003,2.5190350969947612,1.9419042928969588,0.0722701700319329,6756.543447724899,1.1215862123223332,1.1563227205109263
0.00315,2.5189224879372993,2.52373495924871,0.08062633922739258,7537.53610470514,1.2512309933810533,1.2900214276382813
0.0032,2.518796862335554,3.5431040036248973,0.0899310498104578,8407.131572573937,1.3955838410472734,1.4388967969673248
0.0032500000000000003,2.5186567434760114,4.078332151464768,0.1002876826892521,9374.974025086978,1.5562456881644384,1.6046029230280336
0.0033,2.5185004939089266,6.109834811408639,0.11180984596772081,10451.658531354731,1.7349753162048853,1.788957535483533
0.00335,2.5183262996000706,4.936854141892962,0.12462213323557014,11648.800707058203,1.9337009173716615,1.9939541317691223
0.0034000000000000002,2.5181321529216194,6.710631021335771,0.1388608735309599,12979.105311287127,2.154531481673663,2.2217739764953586
0.0034500000000000004,2.5179158344997647,9.393245199442873,0.154674852459768,14456.431815348315,2.39976768134782,2.474797639356288
0.0035,2.517674893969509,5.2017108514813675,0.17222597833105585,16095.854434935041,2.6719118361992167,2.7556156532968936
0.00355,2.5174066297289266,8.759801659797684,0.19168986062679827,17913.71349560322,2.9736764402701343,3.0670377700287723
0.0036000000000000003,2.5171080678373334,9.565437080535144,0.21325626065471434,19927.65429288813,3.3079906126194296,3.4121001704754295
0.00365,2.516775940265785,12.801236276797082,0.23712936588783384,22156.64881791331,3.678003703773609,3.7940698542053415
0.0037,2.516406662785487,12.393656776580118,0.2635278304144512,24620.994860896015,4.087085146908739,4.216445286631219
0.0037500000000000003,2.5159963128711382,13.99910189020417,0.2926845143718396,27342.286104279614,4.538819493310416,4.682952229949434
0.0038,2.5155406081027336,13.16840496433827,0.3248458456433202,30343.34591561167,5.036995421991537,5.197533530293123
0.00385,2.515034885670807,15.065412903058101,0.36027071809282,33648.116708639565,5.5855873736341675,5.76433148948512
0.0039000000000000003,2.5144740837256627,15.909250754432284,0.3992288330730714,37281.496043933774,6.188728343293007,6.387661329169142
0.00395,2.513852725458264,20.70794325389763,0.4419983860352924,41269.110199169765,6.850672293062181,7.071974176564678
0.004,2.5131649069549447,22.28308339665454,0.48886299925399657,45637.01589422859,7.575744638441946,7.821807988063945
0.00405,2.512404290023374,22.620953922255406,0.5401078067170955,50411.32137539152,8.368279348314992,8.641724907473527
0.0041,2.511564101333784,26.193593316998623,0.596014610110588,55617.71933605805,9.232541409785636,9.536233761769408
0.00415,2.51063713934485,29.38265866713809,0.6568560476540339,61280.92637878998,10.172633778879137,10.509696762464543
0.004200000000000001,2.50961579057187,32.657000513048025,0.7228887523293869,67424.02709552717,11.19238849785751,11.56622003727019
0.00425,2.5084920567869444,35.41887703841497,0.7943455244045761,74067.72551086277,12.29524243480322,12.709528390473217
0.0043,2.507257594695097,39.9809267436806,0.8714266058929271,81229.51267054409,13.484099103310319,13.942825694286833
0.004350000000000001,2.505903769483921,41.561919563800906,0.954290221224328,88922.7665121109,14.76117924101041,15.268643539589249
0.0044,2.504421723375386,48.11576689151234,1.043042636630225,97155.8085999849,16.12786422759749,16.6886821860836
0.00445,2.5028024598987195,48.534041417422024,1.1377280859640806,105930.95139626019,17.58453793177919,18.20364937542529
0.0045000000000000005,2.501036944042115,57.26821425424244,1.2383190056953588,115243.57877495112,19.130434076641887,19.81310409112574
0.00455,2.4991162177291995,63.60738728276983,1.3447071068499759,125081.31052922162,20.76349754785079,21.515313709599614
0.0046,2.497031529220379,69.64406473823739,1.4566958748528216,135423.30752758306,22.480269049578787,23.307133997645145
0.0046500000000000005,2.4947744740949194,76.12919275374904,1.573995116673423,146239.77671199915,24.27580293419186,25.183921866774767
0.0047,2.4923371444830527,82.39529590689203,1.6962181561709142,157491.73313328024,26.14362770012452,27.139490498734627
0.00475,2.4897122822641644,90.56634528455047,1.822882203708196,169131.06880024736,28.07575742084106,29.166115259331136
0.0048000000000000004,2.486893431117494,100.33110647459647,1.9534122907821976,181100.96489605383,30.062760172744934,31.25459665251516
0.00485,2.4838750817025597,107.84027790107822,2.0871489676884263,193336.66520666846,32.093886424306966,33.39438348301482
0.0049,2.480652803949115,118.3096336664972,2.2233597236881546,205766.60554926877,34.15725652117862,35.573755579010474
0.00495,2.477223360523294,130.72472079470182,2.3612538247274353,218313.8685209491,36.24010217447755,37.780061195638964
0.005,2.4735847960479447,138.54611671032364,2.5,230897.90757666272,38.32905265772601,40.0
0.005050000000000001,2.469736497588334,150.3968140605458,2.6387461752725674,245678.8950498163,40.7826965782695,42.59218266508949
0.0051,2.4656418493375036,163.6929195751106,2.7766402763118454,259657.40383076025,43.1031290359062,45.06002245975608
0.00515,2.461314225940324,176.6593347767606,2.9128510323115737,272034.9233741164,45.157797280103324,47.27048514625166
0.005200000000000001,2.4567803105507555,191.12998574622154,3.0465877092178046,282525.7347312203,46.89927196538257,49.17518078555537
0.00525,2.452071548305235,202.5456087317891,3.1771177962918045,291496.74987745384,48.38846047965734,50.83388474066887
0.0053,2.4472132691406108,218.57112520632467,3.3037818438290856,299844.14320255857,49.77412777162472,52.39445008256273
0.005350000000000001,2.4422158667539016,233.69670703246769,3.4260048833265793,308637.65970946086,51.2338515117705,54.034080308630045
0.0054,2.437071905758744,248.4067632409732,3.543304125147178,318666.7639462941,52.89868281508482,55.88409420777003
0.00545,2.4317607930263057,265.3593357813159,3.6552928931500244,330074.86926536536,54.792428298050645,57.96903974910364
0.0055000000000000005,2.4262595452052165,279.5242668354081,3.761680994304643,342242.40684495226,56.81223953626208,60.18689590887429
0.00555,2.4205555050911336,297.6523981455061,3.8622719140359196,353983.09374093264,58.76119356099482,62.341195377714
0.0056,2.4146557868621183,318.05404581039517,3.956957363369775,363988.64916497015,60.422115761385044,64.21450743434879
0.0056500000000000005,2.4085893093760355,335.1637314194034,4.045709778775674,371349.51369579835,61.64401927350252,65.65480413596525
0.0057,2.402400150814439,353.2975290325975,4.128573394107073,375939.70619282004,62.405991228008126,66.63958579868833
0.00575,2.3961344890445586,371.3822788923291,4.2056544755954235,378501.8868381378,62.831313215130876,67.29047160952678
0.0058000000000000005,2.389826124263923,392.0897075366444,4.277111247670614,380386.4755236159,63.14415493692024,67.83041446341902
0.00585,2.3834863496718626,407.7430532141353,4.343143952345966,383038.99843386596,63.58447374002175,68.4989651518347
0.0059,2.3771023663646313,428.45366055608645,4.403985389889412,387435.0967873724,64.31422606670381,69.45854087757708
0.00595,2.3706451147515084,447.67715363332695,4.459892193282904,393688.84998587065,65.35234909765452,70.72912496660022
0.006,2.3640836339184106,467.6247896101675,4.511137000746004,400995.1977891497,66.56520283299885,72.17819201193606
0.006050000000000001,2.357400380621925,487.02830577044404,4.558001613964708,407936.3240764574,67.71742979669193,73.57101609430264
0.0061,2.350601441887317,508.12721670297395,4.600771166926929,413036.9457491782,68.56413299436358,74.66248108642016
0.00615,2.3437174927914977,528.2663597218182,4.63972928190718,415352.6084047325,68.94853299518559,75.29470325469167
0.006200000000000001,2.3367949493180853,549.1072273205791,4.6751541543566795,414859.0448466741,68.8666014445479,75.46198326909682
0.00625,2.329880631903974,571.7944080374085,4.70731548562816,412486.4489071905,68.47275051859363,75.31704777005056
0.0063,2.323005857755521,590.9209387815765,4.736472169585549,409780.71539256186,68.02359875516527,75.11538787596652
0.006350000000000001,2.316176179165645,613.403058399334,4.762870634112167,408320.0626450333,67.78113039907552,75.1187879491123
0.0064,2.3093708447882277,631.947935796294,4.786743739345286,409112.40315582725,67.91265892386733,75.49530851149113
0.00645,2.3025523047356304,653.0802391210646,4.8083101393732015,412208.098140028,68.42654429124465,76.25466132076195
0.006500000000000001,2.2956821697666303,673.5137679117564,4.827774021668945,416680.3762548301,69.1689424583018,77.24438434670311
0.00655,2.2887374968290497,693.9474319245968,4.845325147540232,420983.5831681815,69.88327480591812,78.20872492007234
0.0066,2.2817211037762464,715.2142287885155,4.861139126469039,423552.75957670173,70.30975808973248,78.8877983537876
0.0066500000000000005,2.2746618911166347,735.8343062293635,4.875377866764429,423413.8332646429,70.28669632193072,79.11886824173186
0.0067,2.2676049938955574,755.953343184877,4.888190154032278,420568.62472688244,69.81439170466248,78.9006119244224
0.00675,2.260595516816776,777.7404688054709,4.8997123173107475,416005.03423118015,69.0568356823759,78.39539707697196
0.0068000000000000005,2.2536620995795897,798.9516882609618,4.910068950189542,411327.00554156245,68.28028291989936,77.86844733503413
0.00685,2.2468066494872305,818.8036821137342,4.919373660772607,408145.50231097324,67.75215338362156,77.58711400208126
0.006900000000000001,2.240004224448714,839.8385251854005,4.927729829968067,407464.20159013756,67.63905746396283,77.71890538380912
0.0069500000000000004,2.233213154422212,860.6962897095184,4.935231362346521,409296.20401204034,67.9431698659987,78.26749630679907
0.007,2.226391551022011,882.0661927911593,4.941963417773477,412659.70193474717,68.50151052116803,79.07141468437563
0.007050000000000001,2.219513889323099,898.9343239353777,4.94800311527977,415955.16290589125,69.04855704237795,79.86605702674639
0.0071,2.2125813032746673,919.3585773894014,4.953420203274667,417580.0360555908,69.31828598522807,80.38535906734005
0.00715,2.205621636007074,943.258834836894,4.95827769231725,416545.58149073296,69.14656652746167,80.46418763120701
0.007200000000000001,2.198679209648895,963.90795145054,4.962632448324031,412859.2869897967,68.53464164030625,80.10219009294602
0.00725,2.1917982215323986,985.4878065296266,4.966535745378576,407525.95121219015,67.64930790122357,79.46457192605722
0.0073,2.185006122345529,1004.183219063653,4.970033778287588,402166.54122322274,66.75964584305497,78.81942543861594
0.007350000000000001,2.178303346658475,1026.3028405379548,4.973168135754456,398400.4054268834,66.13446730086264,78.43554682115753
0.0074,2.1716633399013605,1046.3685762057132,4.975976235564202,397227.2029865846,65.93971569577305,78.47983545932408
0.00745,2.1650428865182505,1064.6157222665595,4.978491723534536,398645.2007705343,66.17510332790869,78.95355941325167
0.007500000000000001,2.158398799838742,1084.6611780597252,4.980744838220349,401652.254251327,66.67427420572028,79.69191741152558
0.00755,2.1517045956012195,1104.0414637696972,4.982762743492182,404629.39763271145,67.1684800070301,80.42711456538619
0.0076,2.144960772307341,1125.1566117467733,4.984569831165946,405960.5477725632,67.38945093024549,80.8908631271812
0.0076500000000000005,2.138194763177798,1144.0906039977076,4.986187995860522,404651.41318405845,67.1721345885537,80.91712311415296
0.0077,2.131450572958064,1167.4868942264864,4.987636884216827,400710.89777710463,66.51800903099937,80.50578840450906
0.00775,2.1247720579951124,1182.4822123202391,4.988934120538585,395149.03624362295,65.5947400164414,79.82294592861736
0.0078000000000000005,2.1181862407243854,1204.2318427650243,4.9900955108210105,389592.0948644825,64.6722877475041,79.13758308142623
